#          \hbar \omega(eV)    Oscillator strength
       0.000000000000000E+00  0.000000000000000E+00
       0.100000000000000E-01  0.216366366091576E-06
       0.200000000000000E-01  0.865473845690255E-06
       0.300000000000000E-01  0.194734758350923E-05
       0.400000000000000E-01  0.346202948987516E-05
       0.500000000000000E-01  0.540957824443552E-05
       0.600000000000000E-01  0.779006930134976E-05
       0.700000000000000E-01  0.106035948959650E-04
       0.800000000000000E-01  0.138502640529775E-04
       0.900000000000000E-01  0.175302025960807E-04
       0.100000000000000E+00  0.216435531591022E-04
       0.110000000000000E+00  0.261904751986303E-04
       0.120000000000000E+00  0.311711450081333E-04
       0.130000000000000E+00  0.365857557335725E-04
       0.140000000000000E+00  0.424345173905129E-04
       0.150000000000000E+00  0.487176568827329E-04
       0.160000000000000E+00  0.554354180223355E-04
       0.170000000000000E+00  0.625880615513674E-04
       0.180000000000000E+00  0.701758651649450E-04
       0.190000000000000E+00  0.781991235358940E-04
       0.200000000000000E+00  0.866581483409052E-04
       0.210000000000000E+00  0.955532682882115E-04
       0.220000000000000E+00  0.104884829146788E-03
       0.230000000000000E+00  0.114653193777087E-03
       0.240000000000000E+00  0.124858742163298E-03
       0.250000000000000E+00  0.135501871447157E-03
       0.260000000000000E+00  0.146582995963297E-03
       0.270000000000000E+00  0.158102547276145E-03
       0.280000000000000E+00  0.170060974218383E-03
       0.290000000000000E+00  0.182458742930964E-03
       0.300000000000000E+00  0.195296336904703E-03
       0.310000000000000E+00  0.208574257023438E-03
       0.320000000000000E+00  0.222293021608777E-03
       0.330000000000000E+00  0.236453166466430E-03
       0.340000000000000E+00  0.251055244934149E-03
       0.350000000000000E+00  0.266099827931255E-03
       0.360000000000000E+00  0.281587504009786E-03
       0.370000000000000E+00  0.297518879407275E-03
       0.380000000000000E+00  0.313894578101136E-03
       0.390000000000000E+00  0.330715241864705E-03
       0.400000000000000E+00  0.347981530324921E-03
       0.410000000000000E+00  0.365694121021659E-03
       0.420000000000000E+00  0.383853709468736E-03
       0.430000000000000E+00  0.402461009216584E-03
       0.440000000000000E+00  0.421516751916615E-03
       0.450000000000000E+00  0.441021687387272E-03
       0.460000000000000E+00  0.460976583681804E-03
       0.470000000000000E+00  0.481382227157731E-03
       0.480000000000000E+00  0.502239422548062E-03
       0.490000000000000E+00  0.523548993034238E-03
       0.500000000000000E+00  0.545311780320837E-03
       0.510000000000000E+00  0.567528644712023E-03
       0.520000000000000E+00  0.590200465189802E-03
       0.530000000000000E+00  0.613328139494033E-03
       0.540000000000000E+00  0.636912584204267E-03
       0.550000000000000E+00  0.660954734823381E-03
       0.560000000000000E+00  0.685455545863059E-03
       0.570000000000000E+00  0.710415990931104E-03
       0.580000000000000E+00  0.735837062820598E-03
       0.590000000000000E+00  0.761719773600965E-03
       0.600000000000000E+00  0.788065154710878E-03
       0.610000000000000E+00  0.814874257053108E-03
       0.620000000000000E+00  0.842148151091255E-03
       0.630000000000000E+00  0.869887926948447E-03
       0.640000000000000E+00  0.898094694507946E-03
       0.650000000000000E+00  0.926769583515773E-03
       0.660000000000000E+00  0.955913743685255E-03
       0.670000000000000E+00  0.985528344803639E-03
       0.680000000000000E+00  0.101561457684066E-02
       0.690000000000000E+00  0.104617365005919E-02
       0.700000000000000E+00  0.107720679512793E-02
       0.710000000000000E+00  0.110871526323616E-02
       0.720000000000000E+00  0.114070032621059E-02
       0.730000000000000E+00  0.117316327663436E-02
       0.740000000000000E+00  0.120610542796809E-02
       0.750000000000000E+00  0.123952811467317E-02
       0.760000000000000E+00  0.127343269233718E-02
       0.770000000000000E+00  0.130782053780149E-02
       0.780000000000000E+00  0.134269304929113E-02
       0.790000000000000E+00  0.137805164654680E-02
       0.800000000000000E+00  0.141389777095931E-02
       0.810000000000000E+00  0.145023288570610E-02
       0.820000000000001E+00  0.148705847589021E-02
       0.830000000000001E+00  0.152437604868154E-02
       0.840000000000001E+00  0.156218713346044E-02
       0.850000000000001E+00  0.160049328196374E-02
       0.860000000000001E+00  0.163929606843311E-02
       0.870000000000001E+00  0.167859708976588E-02
       0.880000000000001E+00  0.171839796566836E-02
       0.890000000000001E+00  0.175870033881159E-02
       0.900000000000001E+00  0.179950587498962E-02
       0.910000000000001E+00  0.184081626328027E-02
       0.920000000000001E+00  0.188263321620863E-02
       0.930000000000001E+00  0.192495846991291E-02
       0.940000000000001E+00  0.196779378431310E-02
       0.950000000000001E+00  0.201114094328221E-02
       0.960000000000001E+00  0.205500175482021E-02
       0.970000000000001E+00  0.209937805123067E-02
       0.980000000000001E+00  0.214427168930013E-02
       0.990000000000001E+00  0.218968455048033E-02
       0.100000000000000E+01  0.223561854107312E-02
       0.101000000000000E+01  0.228207559241832E-02
       0.102000000000000E+01  0.232905766108443E-02
       0.103000000000000E+01  0.237656672906220E-02
       0.104000000000000E+01  0.242460480396118E-02
       0.105000000000000E+01  0.247317391920934E-02
       0.106000000000000E+01  0.252227613425548E-02
       0.107000000000000E+01  0.257191353477495E-02
       0.108000000000000E+01  0.262208823287829E-02
       0.109000000000000E+01  0.267280236732305E-02
       0.110000000000000E+01  0.272405810372880E-02
       0.111000000000000E+01  0.277585763479531E-02
       0.112000000000000E+01  0.282820318052399E-02
       0.113000000000000E+01  0.288109698844261E-02
       0.114000000000000E+01  0.293454133383342E-02
       0.115000000000000E+01  0.298853851996447E-02
       0.116000000000000E+01  0.304309087832454E-02
       0.117000000000000E+01  0.309820076886140E-02
       0.118000000000000E+01  0.315387058022362E-02
       0.119000000000000E+01  0.321010273000592E-02
       0.120000000000000E+01  0.326689966499812E-02
       0.121000000000000E+01  0.332426386143769E-02
       0.122000000000000E+01  0.338219782526605E-02
       0.123000000000000E+01  0.344070409238858E-02
       0.124000000000000E+01  0.349978522893840E-02
       0.125000000000000E+01  0.355944383154394E-02
       0.126000000000000E+01  0.361968252760060E-02
       0.127000000000000E+01  0.368050397554603E-02
       0.128000000000000E+01  0.374191086513971E-02
       0.129000000000000E+01  0.380390591774637E-02
       0.130000000000000E+01  0.386649188662360E-02
       0.131000000000000E+01  0.392967155721362E-02
       0.132000000000000E+01  0.399344774743916E-02
       0.133000000000000E+01  0.405782330800381E-02
       0.134000000000000E+01  0.412280112269651E-02
       0.135000000000000E+01  0.418838410870050E-02
       0.136000000000000E+01  0.425457521690668E-02
       0.137000000000000E+01  0.432137743223170E-02
       0.138000000000000E+01  0.438879377394020E-02
       0.139000000000000E+01  0.445682729597213E-02
       0.140000000000000E+01  0.452548108727448E-02
       0.141000000000000E+01  0.459475827213790E-02
       0.142000000000000E+01  0.466466201053816E-02
       0.143000000000000E+01  0.473519549848252E-02
       0.144000000000000E+01  0.480636196836098E-02
       0.145000000000000E+01  0.487816468930274E-02
       0.146000000000000E+01  0.495060696753757E-02
       0.147000000000000E+01  0.502369214676265E-02
       0.148000000000000E+01  0.509742360851444E-02
       0.149000000000000E+01  0.517180477254597E-02
       0.150000000000000E+01  0.524683909720960E-02
       0.151000000000000E+01  0.532253007984530E-02
       0.152000000000000E+01  0.539888125717425E-02
       0.153000000000000E+01  0.547589620569873E-02
       0.154000000000000E+01  0.555357854210684E-02
       0.155000000000000E+01  0.563193192368396E-02
       0.156000000000000E+01  0.571096004872956E-02
       0.157000000000000E+01  0.579066665698021E-02
       0.158000000000000E+01  0.587105553003866E-02
       0.159000000000000E+01  0.595213049180920E-02
       0.160000000000000E+01  0.603389540893907E-02
       0.161000000000000E+01  0.611635419126654E-02
       0.162000000000000E+01  0.619951079227523E-02
       0.163000000000000E+01  0.628336920955512E-02
       0.164000000000000E+01  0.636793348527026E-02
       0.165000000000000E+01  0.645320770663306E-02
       0.166000000000000E+01  0.653919600638571E-02
       0.167000000000000E+01  0.662590256328842E-02
       0.168000000000000E+01  0.671333160261470E-02
       0.169000000000000E+01  0.680148739665417E-02
       0.170000000000000E+01  0.689037426522208E-02
       0.171000000000000E+01  0.697999657617697E-02
       0.172000000000000E+01  0.707035874594517E-02
       0.173000000000000E+01  0.716146524005355E-02
       0.174000000000000E+01  0.725332057366967E-02
       0.175000000000000E+01  0.734592931214989E-02
       0.176000000000000E+01  0.743929607159561E-02
       0.177000000000000E+01  0.753342551941761E-02
       0.178000000000000E+01  0.762832237490857E-02
       0.179000000000000E+01  0.772399140982411E-02
       0.180000000000000E+01  0.782043744897233E-02
       0.181000000000000E+01  0.791766537081209E-02
       0.182000000000000E+01  0.801568010805980E-02
       0.183000000000000E+01  0.811448664830574E-02
       0.184000000000000E+01  0.821409003463893E-02
       0.185000000000000E+01  0.831449536628138E-02
       0.186000000000000E+01  0.841570779923198E-02
       0.187000000000000E+01  0.851773254691974E-02
       0.188000000000000E+01  0.862057488086664E-02
       0.189000000000000E+01  0.872424013136046E-02
       0.190000000000000E+01  0.882873368813777E-02
       0.191000000000000E+01  0.893406100107672E-02
       0.192000000000000E+01  0.904022758090055E-02
       0.193000000000000E+01  0.914723899989142E-02
       0.194000000000000E+01  0.925510089261502E-02
       0.195000000000000E+01  0.936381895665597E-02
       0.196000000000000E+01  0.947339895336430E-02
       0.197000000000000E+01  0.958384670861318E-02
       0.198000000000000E+01  0.969516811356807E-02
       0.199000000000000E+01  0.980736912546743E-02
       0.200000000000000E+01  0.992045576841528E-02
       0.201000000000000E+01  0.100344341341857E-01
       0.202000000000000E+01  0.101493103830397E-01
       0.203000000000000E+01  0.102650907445543E-01
       0.204000000000000E+01  0.103817815184640E-01
       0.205000000000000E+01  0.104993890755160E-01
       0.206000000000000E+01  0.106179198583372E-01
       0.207000000000000E+01  0.107373803823155E-01
       0.208000000000000E+01  0.108577772364941E-01
       0.209000000000000E+01  0.109791170844797E-01
       0.210000000000000E+01  0.111014066653642E-01
       0.211000000000000E+01  0.112246527946617E-01
       0.212000000000000E+01  0.113488623652585E-01
       0.213000000000000E+01  0.114740423483791E-01
       0.214000000000000E+01  0.116001997945660E-01
       0.215000000000000E+01  0.117273418346759E-01
       0.216000000000000E+01  0.118554756808904E-01
       0.217000000000000E+01  0.119846086277429E-01
       0.218000000000000E+01  0.121147480531612E-01
       0.219000000000000E+01  0.122459014195269E-01
       0.220000000000000E+01  0.123780762747510E-01
       0.221000000000000E+01  0.125112802533665E-01
       0.222000000000000E+01  0.126455210776381E-01
       0.223000000000000E+01  0.127808065586892E-01
       0.224000000000000E+01  0.129171445976474E-01
       0.225000000000000E+01  0.130545431868073E-01
       0.226000000000000E+01  0.131930104108120E-01
       0.227000000000000E+01  0.133325544478535E-01
       0.228000000000000E+01  0.134731835708922E-01
       0.229000000000000E+01  0.136149061488955E-01
       0.229999999999999E+01  0.137577306480964E-01
       0.230999999999999E+01  0.139016656332727E-01
       0.231999999999999E+01  0.140467197690454E-01
       0.232999999999999E+01  0.141929018211999E-01
       0.233999999999999E+01  0.143402206580264E-01
       0.234999999999999E+01  0.144886852516837E-01
       0.235999999999999E+01  0.146383046795835E-01
       0.236999999999999E+01  0.147890881257990E-01
       0.237999999999999E+01  0.149410448824939E-01
       0.238999999999999E+01  0.150941843513774E-01
       0.239999999999999E+01  0.152485160451805E-01
       0.240999999999999E+01  0.154040495891583E-01
       0.241999999999999E+01  0.155607947226156E-01
       0.242999999999999E+01  0.157187613004579E-01
       0.243999999999999E+01  0.158779592947688E-01
       0.244999999999999E+01  0.160383987964120E-01
       0.245999999999999E+01  0.162000900166604E-01
       0.246999999999999E+01  0.163630432888529E-01
       0.247999999999999E+01  0.165272690700770E-01
       0.248999999999999E+01  0.166927779428814E-01
       0.249999999999999E+01  0.168595806170154E-01
       0.250999999999999E+01  0.170276879311984E-01
       0.251999999999999E+01  0.171971108549187E-01
       0.252999999999999E+01  0.173678604902626E-01
       0.253999999999999E+01  0.175399480737741E-01
       0.254999999999999E+01  0.177133849783461E-01
       0.255999999999999E+01  0.178881827151434E-01
       0.256999999999999E+01  0.180643529355585E-01
       0.257999999999999E+01  0.182419074332007E-01
       0.258999999999999E+01  0.184208581459184E-01
       0.259999999999999E+01  0.186012171578568E-01
       0.260999999999999E+01  0.187829967015499E-01
       0.261999999999999E+01  0.189662091600490E-01
       0.262999999999999E+01  0.191508670690879E-01
       0.263999999999999E+01  0.193369831192844E-01
       0.264999999999999E+01  0.195245701583809E-01
       0.265999999999999E+01  0.197136411935230E-01
       0.266999999999999E+01  0.199042093935783E-01
       0.267999999999999E+01  0.200962880914946E-01
       0.268999999999999E+01  0.202898907867008E-01
       0.269999999999999E+01  0.204850311475473E-01
       0.270999999999999E+01  0.206817230137915E-01
       0.271999999999999E+01  0.208799803991258E-01
       0.272999999999999E+01  0.210798174937502E-01
       0.273999999999999E+01  0.212812486669904E-01
       0.274999999999999E+01  0.214842884699621E-01
       0.275999999999999E+01  0.216889516382828E-01
       0.276999999999998E+01  0.218952530948313E-01
       0.277999999999998E+01  0.221032079525573E-01
       0.278999999999998E+01  0.223128315173400E-01
       0.279999999999998E+01  0.225241392908987E-01
       0.280999999999998E+01  0.227371469737557E-01
       0.281999999999998E+01  0.229518704682519E-01
       0.282999999999998E+01  0.231683258816178E-01
       0.283999999999998E+01  0.233865295290990E-01
       0.284999999999998E+01  0.236064979371388E-01
       0.285999999999998E+01  0.238282478466195E-01
       0.286999999999998E+01  0.240517962161614E-01
       0.287999999999998E+01  0.242771602254832E-01
       0.288999999999998E+01  0.245043572788234E-01
       0.289999999999998E+01  0.247334050084250E-01
       0.290999999999998E+01  0.249643212780837E-01
       0.291999999999998E+01  0.251971241867629E-01
       0.292999999999998E+01  0.254318320722743E-01
       0.293999999999998E+01  0.256684635150276E-01
       0.294999999999998E+01  0.259070373418500E-01
       0.295999999999998E+01  0.261475726298771E-01
       0.296999999999998E+01  0.263900887105159E-01
       0.297999999999998E+01  0.266346051734832E-01
       0.298999999999998E+01  0.268811418709195E-01
       0.299999999999998E+01  0.271297189215802E-01
       0.300999999999998E+01  0.273803567151071E-01
       0.301999999999998E+01  0.276330759163804E-01
       0.302999999999998E+01  0.278878974699523E-01
       0.303999999999998E+01  0.281448426045682E-01
       0.304999999999998E+01  0.284039328377713E-01
       0.305999999999998E+01  0.286651899805968E-01
       0.306999999999998E+01  0.289286361423573E-01
       0.307999999999998E+01  0.291942937355190E-01
       0.308999999999998E+01  0.294621854806730E-01
       0.309999999999998E+01  0.297323344116024E-01
       0.310999999999998E+01  0.300047638804501E-01
       0.311999999999998E+01  0.302794975629837E-01
       0.312999999999998E+01  0.305565594639667E-01
       0.313999999999998E+01  0.308359739226344E-01
       0.314999999999998E+01  0.311177656182753E-01
       0.315999999999998E+01  0.314019595759260E-01
       0.316999999999998E+01  0.316885811721762E-01
       0.317999999999998E+01  0.319776561410905E-01
       0.318999999999998E+01  0.322692105802459E-01
       0.319999999999998E+01  0.325632709568934E-01
       0.320999999999998E+01  0.328598641142392E-01
       0.321999999999998E+01  0.331590172778541E-01
       0.322999999999998E+01  0.334607580622112E-01
       0.323999999999997E+01  0.337651144773561E-01
       0.324999999999997E+01  0.340721149357122E-01
       0.325999999999997E+01  0.343817882590224E-01
       0.326999999999997E+01  0.346941636854359E-01
       0.327999999999997E+01  0.350092708767357E-01
       0.328999999999997E+01  0.353271399257171E-01
       0.329999999999997E+01  0.356478013637166E-01
       0.330999999999997E+01  0.359712861682963E-01
       0.331999999999997E+01  0.362976257710866E-01
       0.332999999999997E+01  0.366268520657931E-01
       0.333999999999997E+01  0.369589974163677E-01
       0.334999999999997E+01  0.372940946653524E-01
       0.335999999999997E+01  0.376321771423964E-01
       0.336999999999997E+01  0.379732786729526E-01
       0.337999999999997E+01  0.383174335871562E-01
       0.338999999999997E+01  0.386646767288925E-01
       0.339999999999997E+01  0.390150434650558E-01
       0.340999999999997E+01  0.393685696950042E-01
       0.341999999999997E+01  0.397252918602176E-01
       0.342999999999997E+01  0.400852469541611E-01
       0.343999999999997E+01  0.404484725323606E-01
       0.344999999999997E+01  0.408150067226948E-01
       0.345999999999997E+01  0.411848882359094E-01
       0.346999999999997E+01  0.415581563763585E-01
       0.347999999999997E+01  0.419348510529805E-01
       0.348999999999997E+01  0.423150127905124E-01
       0.349999999999997E+01  0.426986827409486E-01
       0.350999999999997E+01  0.430859026952524E-01
       0.351999999999997E+01  0.434767150953235E-01
       0.352999999999997E+01  0.438711630462321E-01
       0.353999999999997E+01  0.442692903287199E-01
       0.354999999999997E+01  0.446711414119831E-01
       0.355999999999997E+01  0.450767614667383E-01
       0.356999999999997E+01  0.454861963785787E-01
       0.357999999999997E+01  0.458994927616342E-01
       0.358999999999997E+01  0.463166979725339E-01
       0.359999999999997E+01  0.467378601246893E-01
       0.360999999999997E+01  0.471630281028954E-01
       0.361999999999997E+01  0.475922515782686E-01
       0.362999999999997E+01  0.480255810235214E-01
       0.363999999999997E+01  0.484630677285900E-01
       0.364999999999997E+01  0.489047638166174E-01
       0.365999999999997E+01  0.493507222603074E-01
       0.366999999999997E+01  0.498009968986551E-01
       0.367999999999997E+01  0.502556424540654E-01
       0.368999999999997E+01  0.507147145498713E-01
       0.369999999999997E+01  0.511782697282583E-01
       0.370999999999996E+01  0.516463654686131E-01
       0.371999999999996E+01  0.521190602062994E-01
       0.372999999999996E+01  0.525964133518796E-01
       0.373999999999996E+01  0.530784853107897E-01
       0.374999999999996E+01  0.535653375034831E-01
       0.375999999999996E+01  0.540570323860540E-01
       0.376999999999996E+01  0.545536334713530E-01
       0.377999999999996E+01  0.550552053506128E-01
       0.378999999999996E+01  0.555618137155916E-01
       0.379999999999996E+01  0.560735253812527E-01
       0.380999999999996E+01  0.565904083089964E-01
       0.381999999999996E+01  0.571125316304561E-01
