# E (eV) pdos(E) 
 -3.634  0.248E-07
 -3.624  0.404E-07
 -3.614  0.652E-07
 -3.604  0.104E-06
 -3.594  0.164E-06
 -3.584  0.258E-06
 -3.574  0.400E-06
 -3.564  0.612E-06
 -3.554  0.932E-06
 -3.544  0.141E-05
 -3.534  0.210E-05
 -3.524  0.310E-05
 -3.514  0.456E-05
 -3.504  0.660E-05
 -3.494  0.948E-05
 -3.484  0.135E-04
 -3.474  0.190E-04
 -3.464  0.266E-04
 -3.454  0.369E-04
 -3.444  0.508E-04
 -3.434  0.688E-04
 -3.424  0.928E-04
 -3.414  0.124E-03
 -3.404  0.165E-03
 -3.394  0.216E-03
 -3.384  0.282E-03
 -3.374  0.365E-03
 -3.364  0.468E-03
 -3.354  0.596E-03
 -3.344  0.748E-03
 -3.334  0.936E-03
 -3.324  0.116E-02
 -3.314  0.143E-02
 -3.304  0.175E-02
 -3.294  0.213E-02
 -3.284  0.256E-02
 -3.274  0.306E-02
 -3.264  0.364E-02
 -3.254  0.428E-02
 -3.244  0.504E-02
 -3.234  0.584E-02
 -3.224  0.676E-02
 -3.214  0.776E-02
 -3.204  0.888E-02
 -3.194  0.101E-01
 -3.184  0.114E-01
 -3.174  0.128E-01
 -3.164  0.143E-01
 -3.154  0.159E-01
 -3.144  0.176E-01
 -3.134  0.194E-01
 -3.124  0.213E-01
 -3.114  0.232E-01
 -3.104  0.253E-01
 -3.094  0.274E-01
 -3.084  0.296E-01
 -3.074  0.318E-01
 -3.064  0.341E-01
 -3.054  0.364E-01
 -3.044  0.388E-01
 -3.034  0.412E-01
 -3.024  0.436E-01
 -3.014  0.464E-01
 -3.004  0.488E-01
 -2.994  0.512E-01
 -2.984  0.540E-01
 -2.974  0.564E-01
 -2.964  0.592E-01
 -2.954  0.616E-01
 -2.944  0.644E-01
 -2.934  0.668E-01
 -2.924  0.696E-01
 -2.914  0.724E-01
 -2.904  0.752E-01
 -2.894  0.776E-01
 -2.884  0.804E-01
 -2.874  0.832E-01
 -2.864  0.860E-01
 -2.854  0.884E-01
 -2.844  0.912E-01
 -2.834  0.936E-01
 -2.824  0.964E-01
 -2.814  0.988E-01
 -2.804  0.101E+00
 -2.794  0.104E+00
 -2.784  0.106E+00
 -2.774  0.109E+00
 -2.764  0.111E+00
 -2.754  0.114E+00
 -2.744  0.116E+00
 -2.734  0.119E+00
 -2.724  0.122E+00
 -2.714  0.124E+00
 -2.704  0.127E+00
 -2.694  0.130E+00
 -2.684  0.133E+00
 -2.674  0.135E+00
 -2.664  0.138E+00
 -2.654  0.141E+00
 -2.644  0.144E+00
 -2.634  0.146E+00
 -2.624  0.149E+00
 -2.614  0.151E+00
 -2.604  0.154E+00
 -2.594  0.156E+00
 -2.584  0.158E+00
 -2.574  0.160E+00
 -2.564  0.162E+00
 -2.554  0.164E+00
 -2.544  0.166E+00
 -2.534  0.168E+00
 -2.524  0.170E+00
 -2.514  0.172E+00
 -2.504  0.174E+00
 -2.494  0.177E+00
 -2.484  0.179E+00
 -2.474  0.182E+00
 -2.464  0.184E+00
 -2.454  0.187E+00
 -2.444  0.190E+00
 -2.434  0.192E+00
 -2.424  0.195E+00
 -2.414  0.198E+00
 -2.404  0.200E+00
 -2.394  0.203E+00
 -2.384  0.206E+00
 -2.374  0.209E+00
 -2.364  0.211E+00
 -2.354  0.214E+00
 -2.344  0.216E+00
 -2.334  0.218E+00
 -2.324  0.220E+00
 -2.314  0.222E+00
 -2.304  0.224E+00
 -2.294  0.226E+00
 -2.284  0.227E+00
 -2.274  0.228E+00
 -2.264  0.229E+00
 -2.254  0.230E+00
 -2.244  0.232E+00
 -2.234  0.233E+00
 -2.224  0.234E+00
 -2.214  0.236E+00
 -2.204  0.237E+00
 -2.194  0.239E+00
 -2.184  0.241E+00
 -2.174  0.243E+00
 -2.164  0.246E+00
 -2.154  0.249E+00
 -2.144  0.252E+00
 -2.134  0.256E+00
 -2.124  0.259E+00
 -2.114  0.262E+00
 -2.104  0.266E+00
 -2.094  0.270E+00
 -2.084  0.273E+00
 -2.074  0.276E+00
 -2.064  0.278E+00
 -2.054  0.281E+00
 -2.044  0.283E+00
 -2.034  0.285E+00
 -2.024  0.286E+00
 -2.014  0.287E+00
 -2.004  0.288E+00
 -1.994  0.288E+00
 -1.984  0.289E+00
 -1.974  0.289E+00
 -1.964  0.289E+00
 -1.954  0.289E+00
 -1.944  0.290E+00
 -1.934  0.290E+00
 -1.924  0.290E+00
 -1.914  0.291E+00
 -1.904  0.292E+00
 -1.894  0.294E+00
 -1.884  0.296E+00
 -1.874  0.298E+00
 -1.864  0.300E+00
 -1.854  0.303E+00
 -1.844  0.306E+00
 -1.834  0.309E+00
 -1.824  0.312E+00
 -1.814  0.316E+00
 -1.804  0.319E+00
 -1.794  0.322E+00
 -1.784  0.326E+00
 -1.774  0.329E+00
 -1.764  0.332E+00
 -1.754  0.335E+00
 -1.744  0.337E+00
 -1.734  0.340E+00
 -1.724  0.342E+00
 -1.714  0.344E+00
 -1.704  0.345E+00
 -1.694  0.346E+00
 -1.684  0.348E+00
 -1.674  0.348E+00
 -1.664  0.349E+00
 -1.654  0.350E+00
 -1.644  0.351E+00
 -1.634  0.352E+00
 -1.624  0.353E+00
 -1.614  0.354E+00
 -1.604  0.354E+00
 -1.594  0.356E+00
 -1.584  0.356E+00
 -1.574  0.357E+00
 -1.564  0.358E+00
 -1.554  0.359E+00
 -1.544  0.360E+00
 -1.534  0.360E+00
 -1.524  0.361E+00
 -1.514  0.361E+00
 -1.504  0.362E+00
 -1.494  0.362E+00
 -1.484  0.363E+00
 -1.474  0.364E+00
 -1.464  0.365E+00
 -1.454  0.367E+00
 -1.444  0.368E+00
 -1.434  0.370E+00
 -1.424  0.373E+00
 -1.414  0.376E+00
 -1.404  0.379E+00
 -1.394  0.382E+00
 -1.384  0.386E+00
 -1.374  0.390E+00
 -1.364  0.394E+00
 -1.354  0.399E+00
 -1.344  0.404E+00
 -1.334  0.408E+00
 -1.324  0.412E+00
 -1.314  0.416E+00
 -1.304  0.420E+00
 -1.294  0.420E+00
 -1.284  0.424E+00
 -1.274  0.428E+00
 -1.264  0.428E+00
 -1.254  0.428E+00
 -1.244  0.428E+00
 -1.234  0.428E+00
 -1.224  0.428E+00
 -1.214  0.424E+00
 -1.204  0.424E+00
 -1.194  0.420E+00
 -1.184  0.420E+00
 -1.174  0.416E+00
 -1.164  0.412E+00
 -1.154  0.408E+00
 -1.144  0.408E+00
 -1.134  0.404E+00
 -1.124  0.404E+00
 -1.114  0.404E+00
 -1.104  0.404E+00
 -1.094  0.404E+00
 -1.084  0.408E+00
 -1.074  0.408E+00
 -1.064  0.412E+00
 -1.054  0.416E+00
 -1.044  0.420E+00
 -1.034  0.428E+00
 -1.024  0.432E+00
 -1.014  0.436E+00
 -1.004  0.444E+00
 -0.994  0.448E+00
 -0.984  0.456E+00
 -0.974  0.460E+00
 -0.964  0.464E+00
 -0.954  0.468E+00
 -0.944  0.472E+00
 -0.934  0.472E+00
 -0.924  0.476E+00
 -0.914  0.476E+00
 -0.904  0.480E+00
 -0.894  0.480E+00
 -0.884  0.480E+00
 -0.874  0.480E+00
 -0.864  0.480E+00
 -0.854  0.480E+00
 -0.844  0.480E+00
 -0.834  0.476E+00
 -0.824  0.476E+00
 -0.814  0.476E+00
 -0.804  0.476E+00
 -0.794  0.472E+00
 -0.784  0.472E+00
 -0.774  0.472E+00
 -0.764  0.472E+00
 -0.754  0.472E+00
 -0.744  0.472E+00
 -0.734  0.472E+00
 -0.724  0.472E+00
 -0.714  0.472E+00
 -0.704  0.472E+00
 -0.694  0.476E+00
 -0.684  0.476E+00
 -0.674  0.476E+00
 -0.664  0.480E+00
 -0.654  0.480E+00
 -0.644  0.480E+00
 -0.634  0.484E+00
 -0.624  0.484E+00
 -0.614  0.488E+00
 -0.604  0.488E+00
 -0.594  0.488E+00
 -0.584  0.488E+00
 -0.574  0.492E+00
 -0.564  0.492E+00
 -0.554  0.492E+00
 -0.544  0.496E+00
 -0.534  0.496E+00
 -0.524  0.500E+00
 -0.514  0.500E+00
 -0.504  0.504E+00
 -0.494  0.508E+00
 -0.484  0.508E+00
 -0.474  0.512E+00
 -0.464  0.516E+00
 -0.454  0.520E+00
 -0.444  0.520E+00
 -0.434  0.524E+00
 -0.424  0.528E+00
 -0.414  0.532E+00
 -0.404  0.532E+00
 -0.394  0.536E+00
 -0.384  0.540E+00
 -0.374  0.540E+00
 -0.364  0.544E+00
 -0.354  0.544E+00
 -0.344  0.548E+00
 -0.334  0.548E+00
 -0.324  0.548E+00
 -0.314  0.548E+00
 -0.304  0.552E+00
 -0.294  0.552E+00
 -0.284  0.552E+00
 -0.274  0.552E+00
 -0.264  0.552E+00
 -0.254  0.548E+00
 -0.244  0.548E+00
 -0.234  0.548E+00
 -0.224  0.544E+00
 -0.214  0.544E+00
 -0.204  0.540E+00
 -0.194  0.540E+00
 -0.184  0.536E+00
 -0.174  0.536E+00
 -0.164  0.532E+00
 -0.154  0.528E+00
 -0.144  0.528E+00
 -0.134  0.524E+00
 -0.124  0.520E+00
 -0.114  0.520E+00
 -0.104  0.520E+00
 -0.094  0.520E+00
 -0.084  0.520E+00
 -0.074  0.520E+00
 -0.064  0.520E+00
 -0.054  0.524E+00
 -0.044  0.528E+00
 -0.034  0.532E+00
 -0.024  0.536E+00
 -0.014  0.544E+00
 -0.004  0.548E+00
  0.006  0.556E+00
  0.016  0.564E+00
  0.026  0.572E+00
  0.036  0.580E+00
  0.046  0.588E+00
  0.056  0.596E+00
  0.066  0.604E+00
  0.076  0.612E+00
  0.086  0.616E+00
  0.096  0.620E+00
  0.106  0.624E+00
  0.116  0.628E+00
  0.126  0.628E+00
  0.136  0.628E+00
  0.146  0.628E+00
  0.156  0.624E+00
  0.166  0.624E+00
  0.176  0.620E+00
  0.186  0.616E+00
  0.196  0.612E+00
  0.206  0.604E+00
  0.216  0.600E+00
  0.226  0.592E+00
  0.236  0.588E+00
  0.246  0.584E+00
  0.256  0.576E+00
  0.266  0.572E+00
  0.276  0.572E+00
  0.286  0.568E+00
  0.296  0.564E+00
  0.306  0.564E+00
  0.316  0.564E+00
  0.326  0.564E+00
  0.336  0.564E+00
  0.346  0.568E+00
  0.356  0.572E+00
  0.366  0.572E+00
  0.376  0.576E+00
  0.386  0.580E+00
  0.396  0.584E+00
  0.406  0.588E+00
  0.416  0.592E+00
  0.426  0.596E+00
  0.436  0.596E+00
  0.446  0.600E+00
  0.456  0.604E+00
  0.466  0.608E+00
  0.476  0.612E+00
  0.486  0.612E+00
  0.496  0.616E+00
  0.506  0.620E+00
  0.516  0.624E+00
  0.526  0.628E+00
  0.536  0.628E+00
  0.546  0.632E+00
  0.556  0.636E+00
  0.566  0.640E+00
  0.576  0.640E+00
  0.586  0.644E+00
  0.596  0.644E+00
  0.606  0.644E+00
  0.616  0.644E+00
  0.626  0.644E+00
  0.636  0.644E+00
  0.646  0.644E+00
  0.656  0.640E+00
  0.666  0.640E+00
  0.676  0.636E+00
  0.686  0.636E+00
  0.696  0.636E+00
  0.706  0.632E+00
  0.716  0.632E+00
  0.726  0.636E+00
  0.736  0.636E+00
  0.746  0.636E+00
  0.756  0.640E+00
  0.766  0.644E+00
  0.776  0.648E+00
  0.786  0.652E+00
  0.796  0.656E+00
  0.806  0.660E+00
  0.816  0.664E+00
  0.826  0.668E+00
  0.836  0.672E+00
  0.846  0.672E+00
  0.856  0.676E+00
  0.866  0.676E+00
  0.876  0.676E+00
  0.886  0.676E+00
  0.896  0.672E+00
  0.906  0.672E+00
  0.916  0.668E+00
  0.926  0.664E+00
  0.936  0.656E+00
  0.946  0.652E+00
  0.956  0.648E+00
  0.966  0.640E+00
  0.976  0.636E+00
  0.986  0.632E+00
  0.996  0.628E+00
  1.006  0.624E+00
  1.016  0.624E+00
  1.026  0.620E+00
  1.036  0.620E+00
  1.046  0.620E+00
  1.056  0.624E+00
  1.066  0.628E+00
  1.076  0.632E+00
  1.086  0.636E+00
  1.096  0.640E+00
  1.106  0.648E+00
  1.116  0.652E+00
  1.126  0.656E+00
  1.136  0.664E+00
  1.146  0.668E+00
  1.156  0.672E+00
  1.166  0.676E+00
  1.176  0.680E+00
  1.186  0.684E+00
  1.196  0.688E+00
  1.206  0.692E+00
  1.216  0.696E+00
  1.226  0.696E+00
  1.236  0.700E+00
  1.246  0.704E+00
  1.256  0.708E+00
  1.266  0.708E+00
  1.276  0.712E+00
  1.286  0.716E+00
  1.296  0.720E+00
  1.306  0.724E+00
  1.316  0.728E+00
  1.326  0.732E+00
  1.336  0.736E+00
  1.346  0.740E+00
  1.356  0.740E+00
  1.366  0.744E+00
  1.376  0.744E+00
  1.386  0.744E+00
  1.396  0.744E+00
  1.406  0.740E+00
  1.416  0.740E+00
  1.426  0.736E+00
  1.436  0.732E+00
  1.446  0.724E+00
  1.456  0.720E+00
  1.466  0.712E+00
  1.476  0.704E+00
  1.486  0.696E+00
  1.496  0.692E+00
  1.506  0.684E+00
  1.516  0.676E+00
  1.526  0.672E+00
  1.536  0.668E+00
  1.546  0.664E+00
  1.556  0.660E+00
  1.566  0.656E+00
  1.576  0.656E+00
  1.586  0.656E+00
  1.596  0.656E+00
  1.606  0.660E+00
  1.616  0.664E+00
  1.626  0.664E+00
  1.636  0.672E+00
  1.646  0.676E+00
  1.656  0.680E+00
  1.666  0.684E+00
  1.676  0.692E+00
  1.686  0.696E+00
  1.696  0.704E+00
  1.706  0.708E+00
  1.716  0.712E+00
  1.726  0.720E+00
  1.736  0.724E+00
  1.746  0.728E+00
  1.756  0.736E+00
  1.766  0.740E+00
  1.776  0.744E+00
  1.786  0.748E+00
  1.796  0.756E+00
  1.806  0.760E+00
  1.816  0.764E+00
  1.826  0.768E+00
  1.836  0.772E+00
  1.846  0.776E+00
  1.856  0.780E+00
  1.866  0.784E+00
  1.876  0.788E+00
  1.886  0.788E+00
  1.896  0.792E+00
  1.906  0.792E+00
  1.916  0.792E+00
  1.926  0.788E+00
  1.936  0.788E+00
  1.946  0.784E+00
  1.956  0.784E+00
  1.966  0.776E+00
  1.976  0.772E+00
  1.986  0.768E+00
  1.996  0.764E+00
  2.006  0.756E+00
  2.016  0.748E+00
  2.026  0.744E+00
  2.036  0.740E+00
  2.046  0.732E+00
  2.056  0.728E+00
  2.066  0.724E+00
  2.076  0.720E+00
  2.086  0.720E+00
  2.096  0.720E+00
  2.106  0.720E+00
  2.116  0.724E+00
  2.126  0.724E+00
  2.136  0.728E+00
  2.146  0.736E+00
  2.156  0.740E+00
  2.166  0.748E+00
  2.176  0.752E+00
  2.186  0.760E+00
  2.196  0.764E+00
  2.206  0.772E+00
  2.216  0.776E+00
  2.226  0.784E+00
  2.236  0.788E+00
  2.246  0.792E+00
  2.256  0.792E+00
  2.266  0.796E+00
  2.276  0.796E+00
  2.286  0.796E+00
  2.296  0.792E+00
  2.306  0.792E+00
  2.316  0.788E+00
  2.326  0.784E+00
  2.336  0.780E+00
  2.346  0.776E+00
  2.356  0.772E+00
  2.366  0.768E+00
  2.376  0.764E+00
  2.386  0.760E+00
  2.396  0.756E+00
  2.406  0.756E+00
  2.416  0.752E+00
  2.426  0.752E+00
  2.436  0.752E+00
  2.446  0.752E+00
  2.456  0.756E+00
  2.466  0.760E+00
  2.476  0.764E+00
  2.486  0.768E+00
  2.496  0.772E+00
  2.506  0.776E+00
  2.516  0.780E+00
  2.526  0.788E+00
  2.536  0.792E+00
  2.546  0.800E+00
  2.556  0.804E+00
  2.566  0.808E+00
  2.576  0.816E+00
  2.586  0.820E+00
  2.596  0.824E+00
  2.606  0.828E+00
  2.616  0.832E+00
  2.626  0.836E+00
  2.636  0.844E+00
  2.646  0.848E+00
  2.656  0.852E+00
  2.666  0.856E+00
  2.676  0.860E+00
  2.686  0.864E+00
  2.696  0.864E+00
  2.706  0.868E+00
  2.716  0.868E+00
  2.726  0.868E+00
  2.736  0.868E+00
  2.746  0.868E+00
  2.756  0.868E+00
  2.766  0.864E+00
  2.776  0.864E+00
  2.786  0.860E+00
  2.796  0.856E+00
  2.806  0.852E+00
  2.816  0.848E+00
  2.826  0.840E+00
  2.836  0.836E+00
  2.846  0.832E+00
  2.856  0.828E+00
  2.866  0.824E+00
  2.876  0.820E+00
  2.886  0.816E+00
  2.896  0.812E+00
  2.906  0.808E+00
  2.916  0.808E+00
  2.926  0.804E+00
  2.936  0.804E+00
  2.946  0.800E+00
  2.956  0.800E+00
  2.966  0.796E+00
  2.976  0.796E+00
  2.986  0.796E+00
  2.996  0.796E+00
  3.006  0.796E+00
  3.016  0.792E+00
  3.026  0.796E+00
  3.036  0.796E+00
  3.046  0.796E+00
  3.056  0.800E+00
  3.066  0.800E+00
  3.076  0.804E+00
  3.086  0.808E+00
  3.096  0.816E+00
  3.106  0.820E+00
  3.116  0.828E+00
  3.126  0.836E+00
  3.136  0.844E+00
  3.146  0.856E+00
  3.156  0.868E+00
  3.166  0.876E+00
  3.176  0.888E+00
  3.186  0.900E+00
  3.196  0.912E+00
  3.206  0.924E+00
  3.216  0.936E+00
  3.226  0.944E+00
  3.236  0.956E+00
  3.246  0.964E+00
  3.256  0.968E+00
  3.266  0.976E+00
  3.276  0.980E+00
  3.286  0.984E+00
  3.296  0.988E+00
  3.306  0.988E+00
  3.316  0.988E+00
  3.326  0.984E+00
  3.336  0.980E+00
  3.346  0.976E+00
  3.356  0.972E+00
  3.366  0.964E+00
  3.376  0.960E+00
  3.386  0.952E+00
  3.396  0.944E+00
  3.406  0.936E+00
  3.416  0.932E+00
  3.426  0.924E+00
  3.436  0.916E+00
  3.446  0.912E+00
  3.456  0.908E+00
  3.466  0.904E+00
  3.476  0.900E+00
  3.486  0.896E+00
  3.496  0.892E+00
  3.506  0.892E+00
  3.516  0.888E+00
  3.526  0.888E+00
  3.536  0.888E+00
  3.546  0.884E+00
  3.556  0.884E+00
  3.566  0.884E+00
  3.576  0.880E+00
  3.586  0.880E+00
  3.596  0.880E+00
  3.606  0.880E+00
  3.616  0.876E+00
  3.626  0.876E+00
  3.636  0.876E+00
  3.646  0.872E+00
  3.656  0.872E+00
  3.666  0.872E+00
  3.676  0.872E+00
  3.686  0.872E+00
  3.696  0.868E+00
  3.706  0.868E+00
  3.716  0.872E+00
  3.726  0.872E+00
  3.736  0.872E+00
  3.746  0.872E+00
  3.756  0.876E+00
  3.766  0.880E+00
  3.776  0.884E+00
  3.786  0.888E+00
  3.796  0.892E+00
  3.806  0.896E+00
  3.816  0.904E+00
  3.826  0.908E+00
  3.836  0.916E+00
  3.846  0.924E+00
  3.856  0.932E+00
  3.866  0.936E+00
  3.876  0.944E+00
  3.886  0.952E+00
  3.896  0.956E+00
  3.906  0.960E+00
  3.916  0.964E+00
  3.926  0.968E+00
  3.936  0.972E+00
  3.946  0.972E+00
  3.956  0.972E+00
  3.966  0.972E+00
  3.976  0.968E+00
  3.986  0.964E+00
  3.996  0.964E+00
  4.006  0.956E+00
  4.016  0.952E+00
  4.026  0.948E+00
  4.036  0.940E+00
  4.046  0.936E+00
  4.056  0.928E+00
  4.066  0.924E+00
  4.076  0.916E+00
  4.086  0.912E+00
  4.096  0.908E+00
  4.106  0.904E+00
  4.116  0.900E+00
  4.126  0.896E+00
  4.136  0.896E+00
  4.146  0.896E+00
  4.156  0.900E+00
  4.166  0.900E+00
  4.176  0.904E+00
  4.186  0.908E+00
  4.196  0.912E+00
  4.206  0.920E+00
  4.216  0.924E+00
  4.226  0.932E+00
  4.236  0.940E+00
  4.246  0.944E+00
  4.256  0.952E+00
  4.266  0.956E+00
  4.276  0.960E+00
  4.286  0.964E+00
  4.296  0.968E+00
  4.306  0.968E+00
  4.316  0.968E+00
  4.326  0.972E+00
  4.336  0.972E+00
  4.346  0.972E+00
  4.356  0.972E+00
  4.366  0.968E+00
  4.376  0.968E+00
  4.386  0.968E+00
  4.396  0.968E+00
  4.406  0.964E+00
  4.416  0.964E+00
  4.426  0.964E+00
  4.436  0.964E+00
  4.446  0.960E+00
  4.456  0.960E+00
  4.466  0.960E+00
  4.476  0.960E+00
  4.486  0.956E+00
  4.496  0.956E+00
  4.506  0.956E+00
  4.516  0.956E+00
  4.526  0.956E+00
  4.536  0.956E+00
  4.546  0.956E+00
  4.556  0.956E+00
  4.566  0.956E+00
  4.576  0.956E+00
  4.586  0.956E+00
  4.596  0.956E+00
  4.606  0.956E+00
  4.616  0.956E+00
  4.626  0.960E+00
  4.636  0.960E+00
  4.646  0.960E+00
  4.656  0.960E+00
  4.666  0.960E+00
  4.676  0.960E+00
  4.686  0.964E+00
  4.696  0.964E+00
  4.706  0.968E+00
  4.716  0.972E+00
  4.726  0.976E+00
  4.736  0.984E+00
  4.746  0.988E+00
  4.756  0.996E+00
  4.766  0.101E+01
  4.776  0.102E+01
  4.786  0.103E+01
  4.796  0.104E+01
  4.806  0.105E+01
  4.816  0.106E+01
  4.826  0.108E+01
  4.836  0.109E+01
  4.846  0.110E+01
  4.856  0.111E+01
  4.866  0.112E+01
  4.876  0.113E+01
  4.886  0.114E+01
  4.896  0.115E+01
  4.906  0.116E+01
  4.916  0.116E+01
  4.926  0.116E+01
  4.936  0.116E+01
  4.946  0.116E+01
  4.956  0.116E+01
  4.966  0.115E+01
  4.976  0.115E+01
  4.986  0.114E+01
  4.996  0.113E+01
  5.006  0.112E+01
  5.016  0.111E+01
  5.026  0.110E+01
  5.036  0.109E+01
  5.046  0.108E+01
  5.056  0.108E+01
  5.066  0.107E+01
  5.076  0.106E+01
  5.086  0.105E+01
  5.096  0.104E+01
  5.106  0.104E+01
  5.116  0.104E+01
  5.126  0.103E+01
  5.136  0.103E+01
  5.146  0.102E+01
  5.156  0.102E+01
  5.166  0.102E+01
  5.176  0.102E+01
  5.186  0.103E+01
  5.196  0.103E+01
  5.206  0.104E+01
  5.216  0.104E+01
  5.226  0.105E+01
  5.236  0.106E+01
  5.246  0.107E+01
  5.256  0.108E+01
  5.266  0.110E+01
  5.276  0.111E+01
  5.286  0.112E+01
  5.296  0.114E+01
  5.306  0.115E+01
  5.316  0.116E+01
  5.326  0.117E+01
  5.336  0.117E+01
  5.346  0.118E+01
  5.356  0.118E+01
  5.366  0.118E+01
  5.376  0.118E+01
  5.386  0.117E+01
  5.396  0.116E+01
  5.406  0.115E+01
  5.416  0.114E+01
  5.426  0.112E+01
  5.436  0.111E+01
  5.446  0.110E+01
  5.456  0.108E+01
  5.466  0.106E+01
  5.476  0.105E+01
  5.486  0.104E+01
  5.496  0.102E+01
  5.506  0.102E+01
  5.516  0.101E+01
  5.526  0.101E+01
  5.536  0.101E+01
  5.546  0.101E+01
  5.556  0.102E+01
  5.566  0.102E+01
  5.576  0.103E+01
  5.586  0.104E+01
  5.596  0.105E+01
  5.606  0.106E+01
  5.616  0.108E+01
  5.626  0.109E+01
  5.636  0.110E+01
  5.646  0.110E+01
  5.656  0.111E+01
  5.666  0.112E+01
  5.676  0.112E+01
  5.686  0.112E+01
  5.696  0.111E+01
  5.706  0.110E+01
  5.716  0.110E+01
  5.726  0.109E+01
  5.736  0.108E+01
  5.746  0.106E+01
  5.756  0.105E+01
  5.766  0.103E+01
  5.776  0.102E+01
  5.786  0.100E+01
  5.796  0.992E+00
  5.806  0.980E+00
  5.816  0.972E+00
  5.826  0.964E+00
  5.836  0.960E+00
  5.846  0.956E+00
  5.856  0.956E+00
  5.866  0.956E+00
  5.876  0.960E+00
  5.886  0.964E+00
  5.896  0.972E+00
  5.906  0.980E+00
  5.916  0.992E+00
  5.926  0.100E+01
  5.936  0.101E+01
  5.946  0.102E+01
  5.956  0.103E+01
  5.966  0.104E+01
  5.976  0.105E+01
  5.986  0.106E+01
  5.996  0.106E+01
  6.006  0.106E+01
  6.016  0.106E+01
  6.026  0.106E+01
  6.036  0.106E+01
  6.046  0.105E+01
  6.056  0.104E+01
  6.066  0.104E+01
  6.076  0.103E+01
  6.086  0.102E+01
  6.096  0.101E+01
  6.106  0.100E+01
  6.116  0.996E+00
  6.126  0.988E+00
  6.136  0.980E+00
  6.146  0.976E+00
  6.156  0.972E+00
  6.166  0.972E+00
  6.176  0.972E+00
  6.186  0.972E+00
  6.196  0.976E+00
  6.206  0.980E+00
  6.216  0.984E+00
  6.226  0.992E+00
  6.236  0.100E+01
  6.246  0.101E+01
  6.256  0.102E+01
  6.266  0.102E+01
  6.276  0.103E+01
  6.286  0.104E+01
  6.296  0.104E+01
  6.306  0.104E+01
  6.316  0.105E+01
  6.326  0.105E+01
  6.336  0.104E+01
  6.346  0.104E+01
  6.356  0.104E+01
  6.366  0.103E+01
  6.376  0.102E+01
  6.386  0.101E+01
  6.396  0.996E+00
  6.406  0.988E+00
  6.416  0.976E+00
  6.426  0.964E+00
  6.436  0.952E+00
  6.446  0.944E+00
  6.456  0.936E+00
  6.466  0.928E+00
  6.476  0.924E+00
  6.486  0.920E+00
  6.496  0.920E+00
  6.506  0.920E+00
  6.516  0.924E+00
  6.526  0.928E+00
  6.536  0.932E+00
  6.546  0.940E+00
  6.556  0.948E+00
  6.566  0.956E+00
  6.576  0.964E+00
  6.586  0.972E+00
  6.596  0.980E+00
  6.606  0.992E+00
  6.616  0.100E+01
  6.626  0.101E+01
  6.636  0.102E+01
  6.646  0.102E+01
  6.656  0.103E+01
  6.666  0.104E+01
  6.676  0.104E+01
  6.686  0.105E+01
  6.696  0.106E+01
  6.706  0.106E+01
  6.716  0.106E+01
  6.726  0.107E+01
  6.736  0.107E+01
  6.746  0.107E+01
  6.756  0.108E+01
  6.766  0.108E+01
  6.776  0.108E+01
  6.786  0.107E+01
  6.796  0.107E+01
  6.806  0.107E+01
  6.816  0.106E+01
  6.826  0.106E+01
  6.836  0.105E+01
  6.846  0.105E+01
  6.856  0.104E+01
  6.866  0.104E+01
